#Parameters = {H_cav=30; H_pipe=12; L_cav=20; L_pipe=70; W_cav=30; W_pipe=12; beta=1; cellsperw=20; q=1e-09; sigmaz=5}
#"Frequency / GHz"	"Z [Magnitude]"
#---------------------------------
0.0000000000000	56.578184702813
0.0020478289222872	56.480475751959
0.0040956578445743	56.222384192084
0.0061434867668615	55.900659054002
0.0081913156891487	55.649276624290
0.010239144611436	55.601854840175
0.012286973533723	55.849015762935
0.014334802456010	56.404036902919
0.016382631378297	57.190186668437
0.018430460300585	58.054960281894
0.020478289222872	58.804972991829
0.022526118145159	59.249029736562
0.024573947067446	59.238556226366
0.026621775989733	58.699878191350
0.028669604912020	57.656772882131
0.030717433834308	56.242256567755
0.032765262756595	54.695825725536
0.034813091678882	53.337702692511
0.036860920601169	52.509673923017
0.038908749523456	52.482783645583
0.040956578445743	53.360715349857
0.043004407368031	55.031007145550
0.045052236290318	57.194893835822
0.047100065212605	59.452596517318
0.049147894134892	61.395150540940
0.051195723057179	62.672842165433
0.053243551979466	63.037673614854
0.055291380901754	62.369180118012
0.057339209824041	60.692667439845
0.059387038746328	58.194749472269
0.061434867668615	55.235017787546
0.063482696590902	52.341225548513
0.065530525513189	50.155083366854
0.067578354435477	49.283489663869
0.069626183357764	50.065455562945
0.071674012280051	52.399108452898
0.073721841202338	55.786738552409
0.075769670124625	59.544877495441
0.077817499046912	63.002056471089
0.079865327969200	65.604983499304
0.081913156891487	66.957517965266
0.083960985813774	66.832686887223
0.086008814736061	65.180468069094
0.088056643658348	62.141035880820
0.090104472580635	58.067832101311
0.092152301502923	53.558948448444
0.094200130425210	49.472327642694
0.096247959347497	46.837741989302
0.098295788269784	46.528499734652
0.10034361719207	48.772988092965
0.10239144611436	52.996116534165
0.10443927503665	58.186296854600
0.10648710395893	63.330649890427
0.10853493288122	67.613159629676
0.11058276180351	70.447802120321
0.11263059072579	71.464662884592
0.11467841964808	70.497834534371
0.11672624857037	67.586662247421
0.11877407749266	62.994242625137
0.12082190641494	57.249935215384
0.12286973533723	51.221380947990
0.12491756425952	46.177810919482
0.12696539318180	43.636821747229
0.12901322210409	44.654871284309
0.13106105102638	48.989065565830
0.13310887994867	55.324453911461
0.13515670887095	62.177736844438
0.13720453779324	68.369906548008
0.13925236671553	73.069453851867
0.14130019563781	75.730461688012
0.14334802456010	76.045896380984
0.14539585348239	73.928886967525
0.14744368240468	69.517334570260
0.14949151132696	63.204693908752
0.15153934024925	55.714011720603
0.15358716917154	48.241014042832
0.15563499809382	42.608156756723
0.15768282701611	40.935878776223
0.15973065593840	44.152729863380
0.16177848486069	51.017093917149
0.16382631378297	59.417252437185
0.16587414270526	67.626038116094
0.16792197162755	74.471734972199
0.16996980054984	79.188325086036
0.17201762947212	81.303498754829
0.17406545839441	80.588048407573
0.17611328731670	77.042432847531
0.17816111623898	70.909671424503
0.18020894516127	62.723753175271
0.18225677408356	53.431968754429
0.18430460300585	44.661569207954
0.18635243192813	39.027284847760
0.18840026085042	39.284577960176
0.19044808977271	45.498650023695
0.19249591869499	55.005350006629
0.19454374761728	65.194260294077
0.19659157653957	74.369196815623
0.19863940546186	81.470547987433
0.20068723438414	85.828648747803
0.20273506330643	87.054810117841
0.20478289222872	85.003340291056
0.20683072115100	79.767545644673
0.20887855007329	71.702737964611
0.21092637899558	61.498423019138
0.21297420791787	50.376728327696
0.21502203684015	40.580894418591
0.21706986576244	35.896446283336
0.21911769468473	39.359311789788
0.22116552360701	49.019928191854
0.22321335252930	60.945311498969
0.22526118145159	72.524830746131
0.22730901037388	82.262867752694
0.22935683929616	89.241467480305
0.23140466821845	92.889306060931
0.23345249714074	92.902226014184
0.23550032606302	89.221599968926
0.23754815498531	82.039489660693
0.23959598390760	71.832743828897
0.24164381282989	59.468456687382
0.24369164175217	46.528801453014
0.24573947067446	36.214391400043
0.24778729959675	33.967930101129
0.24983512851903	41.785864987890
0.25188295744132	54.824052352560
0.25393078636361	68.740689312245
0.25597861528590	81.287609941479
0.25802644420818	91.204920750267
0.26007427313047	97.704183034529
0.26212210205276	100.30488762977
0.26416993097504	98.787283039321
0.26621775989733	93.184397238652
0.26826558881962	83.794629862617
0.27031341774191	71.228547838398
0.27236124666419	56.563793832488
0.27440907558648	41.893961477158
0.27645690450877	32.031206441525
0.27850473343106	34.253309535694
0.28055256235334	46.914379301388
0.28260039127563	62.858647237860
0.28464822019792	78.291171702863
0.28669604912020	91.407943897973
0.28874387804249	101.14576637501
0.29079170696478	106.82263542770
0.29283953588707	108.04208120860
0.29488736480935	104.67092917087
0.29693519373164	96.840667739613
0.29898302265393	84.965829441501
0.30103085157621	69.806743948615
0.30307868049850	52.702821828157
0.30512650942079	36.550984329949
0.30717433834308	28.999527641730
0.30922216726536	37.665520618900
0.31126999618765	54.783240264466
0.31331782510994	73.035892278738
0.31536565403222	89.550875854744
0.31741348295451	102.87686776435
0.31946131187680	112.09319539523
0.32150914079909	116.60530030169
0.32355696972137	116.09836768782
0.32560479864366	110.53125424875
0.32765262756595	100.14332144860
0.32970045648823	85.477609861254
0.33174828541052	67.465588176874
0.33379611433281	47.793606187028
0.33584394325510	30.787782288445
0.33789177217738	28.745359625177
0.33993960109967	44.576934252588
0.34198743002196	65.299521399003
0.34403525894424	85.331972310222
0.34608308786653	102.56057608144
0.34813091678882	115.76307108229
0.35017874571111	124.11852296525
0.35222657463339	127.10904394620
0.35427440355568	124.50406253170
0.35632223247797	116.36336655988
0.35837006140025	103.04645046544
0.36041789032254	85.240306445408
0.36246571924483	64.076899758339
0.36451354816712	41.745980817365
0.36656137708940	25.499267118837
0.36860920601169	32.876128551565
0.37065703493398	54.898525415904
0.37270486385627	78.434086961047
0.37475269277855	99.842796572202
0.37680052170084	117.46988289757
0.37884835062313	130.22785449873
0.38089617954541	137.36894568956
0.38294400846770	138.44898609748
0.38499183738999	133.32887346482
0.38703966631228	122.18175105772
0.38908749523456	105.50274098474
0.39113532415685	84.142099174057
0.39318315307914	59.474777257137
0.39523098200142	34.525384961086
0.39727881092371	23.065576582253
0.39932663984600	41.818482719473
0.40137446876829	68.513751566484
0.40342229769057	94.330570557865
0.40547012661286	116.82164616393
0.40751795553515	134.56573583223
0.40956578445743	146.55156558044
0.41161361337972	152.09127025254
0.41366144230201	150.81782875377
0.41570927122430	142.69516518916
0.41775710014658	128.02605654037
0.41980492906887	107.46069789988
0.42185275799116	82.037115301080
0.42390058691344	53.439929259044
0.42594841583573	26.392141278125
0.42799624475802	27.035346568928
0.43004407368031	55.211027949739
0.43209190260259	85.562362367082
0.43413973152488	113.36834701267
0.43618756044717	136.72845564673
0.43823538936945	154.32224382548
0.44028321829174	165.18175237207
0.44233104721403	168.67505720017
0.44437887613632	164.52091629060
0.44642670505860	152.80224725661
0.44847453398089	133.97236843293
0.45052236290318	108.86117640571
0.45257019182546	78.726378893736
0.45461802074775	45.680785070785
0.45666584967004	19.108408585243
0.45871367859233	38.313023614935
0.46076150751461	72.966872564666
0.46280933643690	106.55824373429
0.46485716535919	136.24327141984
0.46690499428147	160.31902153014
0.46895282320376	177.49232394016
0.47100065212605	186.82080178125
0.47304848104834	187.73064125371
0.47509630997062	180.03957669279
0.47714413889291	163.97051773907
0.47919196781520	140.15429581358
0.48123979673749	109.63236837388
0.48328762565977	73.925264294910
0.48533545458206	35.831899099545
0.48738328350435	19.697953367848
0.48943111242663	55.821364424969
0.49147894134892	95.665254025410
0.49352677027121	132.51425339644
0.49557459919350	164.12382488791
0.49762242811578	188.81566646968
0.49967025703807	205.27999919124
0.50171808596036	212.58959080865
0.50376591488264	210.23465917182
0.50581374380493	198.14955585547
0.50786157272722	176.72451831229
0.50990940164951	146.80337256037
0.51195723057179	109.68163716347
0.51400505949408	67.204146565361
0.51605288841637	23.669048366335
0.51810071733865	33.412256546699
0.52014854626094	79.661644783012
0.52219637518323	124.72465553134
0.52424420410552	165.21217168998
0.52629203302780	198.96970911114
0.52833986195009	224.24579802354
0.53038769087238	239.67978138584
0.53243551979466	244.34986514307
0.53448334871695	237.81761588760
0.53653117763924	220.15619198166
0.53857900656153	191.95899774058
0.54062683548381	154.33092609617
0.54267466440610	108.88052718070
0.54472249332839	57.871909642546
0.54677032225067	12.634709682435
0.54881815117296	56.996675978520
0.55086598009525	111.64582802589
0.55291380901754	162.85533171595
0.55496163793982	207.80998826188
0.55700946686211	244.21325661460
0.55905729578440	270.16032625708
0.56110512470668	284.19810339656
0.56315295362897	285.39282527262
0.56520078255126	273.38190300850
0.56724861147355	248.40342710010
0.56929644039583	211.30133697557
0.57134426931812	163.50899787985
0.57339209824041	107.03376328797
0.57543992716269	44.729219068421
0.57748775608498	25.545187501701
0.57953558500727	91.226767760001
0.58158341392956	155.90848266544
0.58363124285184	215.25955337869
0.58567907177413	266.28022421355
0.58772690069642	306.35701147485
0.58977472961871	333.32464175051
0.59182255854099	345.56371381996
0.59387038746328	342.08545309546
0.59591821638557	322.59288413838
0.59796604530785	287.51380751052
0.60001387423014	238.00376852977
0.60206170315243	175.92167818586
0.60410953207472	103.80495412184
0.60615736099700	25.558584345980
0.60820518991929	59.612120276325
0.61025301884158	142.28853784848
0.61230084776386	221.38674899699
0.61434867668615	292.91255206607
0.61639650560844	353.27658760471
0.61844433453073	399.29904722111
0.62049216345301	428.34697890038
0.62253999237530	438.46608439678
0.62458782129759	428.48981217443
0.62663565021987	398.11837340667
0.62868347914216	347.96301162151
0.63073130806445	279.55301791589
0.63277913698674	195.30714428152
0.63482696590902	98.499510236986
0.63687479483131	9.8609053017965
0.63892262375360	117.43402129071
0.64097045267588	226.64387483752
0.64301828159817	330.28712729706
0.64506611052046	423.31722482013
0.64711393944275	500.96769564312
0.64916176836503	558.93996912210
0.65120959728732	593.60395870656
0.65325742620961	602.18196707690
0.65530525513189	582.90530467362
0.65735308405418	535.13589699232
0.65940091297647	459.44681888461
0.66144874189876	357.65755471101
0.66349657082104	232.82325045468
0.66554439974333	89.207593681875
0.66759222866562	68.303903271835
0.66964005758790	232.83624621674
0.67168788651019	397.96981395674
0.67373571543248	556.28289991818
0.67578354435477	700.21006624774
0.67783137327705	822.25275363568
0.67987920219934	915.25593721092
0.68192703112163	972.68435091954
0.68397486004391	988.88488745119
0.68602268896620	959.32454140995
0.68807051788849	880.79435448502
0.69011834681078	751.57104062622
0.69216617573306	571.52953020911
0.69421400465535	342.20201584377
0.69626183357764	66.805331835709
0.69830966249993	249.99575872121
0.70035749142221	601.77866510967
0.70240532034450	981.02443142577
0.70445314926679	1379.0455946163
0.70650097818907	1786.3190158226
0.70854880711136	2192.7744115156
0.71059663603365	2588.1078830268
0.71264446495594	2962.1072200340
0.71469229387822	3304.9773269868
0.71674012280051	3607.6542296915
0.71878795172280	3862.0965234241
0.72083578064508	4061.5439264207
0.72288360956737	4200.7337893016
0.72493143848966	4276.0679397396
0.72697926741195	4285.7240544047
0.72902709633423	4229.7077772569
0.73107492525652	4109.8439664771
0.73312275417881	3929.7076684584
0.73517058310109	3694.4976011896
0.73721841202338	3410.8569975174
0.73926624094567	3086.6485325348
0.74131406986796	2730.6916680904
0.74336189879024	2352.4720313618
0.74540972771253	1961.8333570635
0.74745755663482	1568.6630331385
0.74950538555710	1182.5823854196
0.75155321447939	812.65253738234
0.75360104340168	467.10615810701
0.75564887232397	153.11801828410
0.75769670124625	123.44228771384
0.75974453016854	357.98312362908
0.76179235909083	547.52861711500
0.76384018801311	690.57701511667
0.76588801693540	787.14687116608
0.76793584585769	838.70349940449
0.76998367477998	848.04317347834
0.77203150370226	819.13541168354
0.77407933262455	756.93011908852
0.77612716154684	667.13774614491
0.77817499046912	555.99147949649
0.78022281939141	430.00102483947
0.78227064831370	295.70815187190
0.78431847723599	159.45854050213
0.78636630615827	27.405311679566
0.78841413508056	96.146854154184
0.79046196400285	205.44675976956
0.79250979292513	297.40197806412
0.79455762184742	369.33302497940
0.79660545076971	419.60364322191
0.79865327969200	447.59809647413
0.80070110861428	453.67802681475
0.80274893753657	439.10501693048
0.80479676645886	405.93201924763
0.80684459538115	356.86922544314
0.80889242430343	295.13116074891
0.81094025322572	224.27309305689
0.81298808214801	148.02923510429
0.81503591107029	70.209893042973
0.81708373999258	9.3200151762647
0.81913156891487	77.611493377473
0.82117939783716	140.57164967012
0.82322722675944	193.38418291526
0.82527505568173	234.27201287898
0.82732288460402	262.14408933454
0.82937071352630	276.56289096499
0.83141854244859	277.71967568811
0.83346637137088	266.38817547844
0.83551420029317	243.85635419156
0.83756202921545	211.83996441019
0.83960985813774	172.38367052419
0.84165768706003	127.75954568428
0.84370551598231	80.394803790377
0.84575334490460	33.157078600332
0.84780117382689	17.732338739980
0.84984900274918	58.365359463663
0.85189683167146	95.423551876560
0.85394466059375	125.95468135068
0.85599248951604	148.87121416377
0.85804031843832	163.60789182745
0.86008814736061	170.04019124306
0.86213597628290	168.44963673944
0.86418380520519	159.48234531813
0.86623163412747	144.09595046988
0.86827946304976	123.49776691372
0.87032729197205	99.081749587933
0.87237512089433	72.385237252533
0.87442294981662	45.165894370040
0.87647077873891	20.613037374151
0.87851860766120	17.221444088624
0.88056643658348	36.288591498638
0.88261426550577	54.830968881893
0.88466209442806	69.677957037364
0.88670992335034	80.125492031427
0.88875775227263	86.005661961552
0.89080558119492	87.470177909587
0.89285341011721	84.922308770392
0.89490123903949	78.969665022768
0.89694906796178	70.380805878063
0.89899689688407	60.047873035967
0.90104472580635	48.966907252031
0.90309255472864	38.259740264988
0.90514038365093	29.262931933649
0.90718821257322	23.536883803288
0.90923604149550	21.997748025339
0.91128387041779	23.448204482806
0.91333169934008	25.665682525111
0.91537952826237	27.201898061561
0.91742735718465	27.458401929057
0.91947518610694	26.299442146944
0.92152301502923	23.810749059867
0.92357084395151	20.182319911542
0.92561867287380	15.692196293114
0.92766650179609	10.943890226543
0.92971433071838	8.2073857237071
0.93176215964066	11.599731270190
0.93380998856295	19.333209348963
0.93585781748524	28.977801650247
0.93790564640752	39.714856389745
0.93995347532981	51.018516057574
0.94200130425210	62.317197604563
0.94404913317439	72.933810173346
0.94609696209667	82.097111906487
0.94814479101896	88.980808008462
0.95019261994125	92.756779987423
0.95224044886353	92.655787627212
0.95428827778582	88.031381615846
0.95633610670811	78.424973448097
0.95838393563040	63.636975468824
0.96043176455268	43.851057410000
0.96247959347497	20.412396074706
0.96452742239726	15.880798425609
0.96657525131954	45.676859536512
0.96862308024183	79.686620958807
0.97067090916412	114.43273887939
0.97271873808641	147.94207397388
0.97476656700869	178.26606747403
0.97681439593098	203.44290896081
0.97886222485327	221.56962025615
0.98091005377555	230.89757215908
0.98295788269784	229.93434271109
0.98500571162013	217.54462734891
0.98705354054242	193.04616775887
0.98910136946470	156.30288832362
0.99114919838699	107.85232433130
0.99319702730928	49.556888843043
0.99524485623156	26.880037145077
0.99729268515385	98.930333830221
0.99934051407614	178.24043484253
1.0013883429984	258.55525828618
1.0034361719207	335.83705347743
1.0054840008430	405.93145186807
1.0075318297653	464.56750744346
1.0095796586876	507.48884084855
1.0116274876099	530.61332298776
1.0136753165321	530.20126479407
1.0157231454544	503.02266847650
1.0177709743767	446.51714285366
1.0198188032990	358.94537143377
1.0218666322213	239.56338397750
1.0239144611436	89.440567830788
1.0259622900659	96.614924322751
1.0280101189882	305.57739726831
1.0300579479104	540.50902098955
1.0321057768327	796.13112213289
1.0341536057550	1067.0754813529
1.0362014346773	1347.2861313725
1.0382492635996	1630.1306497453
1.0402970925219	1908.5845994611
1.0423449214442	2175.4447321856
1.0443927503665	2423.5574800109
1.0464405792887	2646.0531473335
1.0484884082110	2836.5768363271
1.0505362371333	2989.5073755444
1.0525840660556	3100.1559085179
1.0546318949779	3164.9364591567
1.0566797239002	3181.5017401697
1.0587275528225	3148.8386889025
1.0607753817448	3067.3196617145
1.0628232106670	2938.7068406927
1.0648710395893	2766.1091440737
1.0669188685116	2553.8927184932
1.0689666974339	2307.5478611395
1.0710145263562	2033.5169141519
1.0730623552785	1738.9892568678
1.0751101842008	1431.6710347502
1.0771580131231	1119.5390425739
1.0792058420453	810.59203655994
1.0812536709676	512.63119883647
1.0833014998899	233.29845438145
1.0853493288122	34.928165681778
1.0873971577345	250.31091488016
1.0894449866568	440.43314148228
1.0914928155791	593.01962088024
1.0935406445013	705.83509438373
1.0955884734236	778.19907764060
1.0976363023459	810.79653437458
1.0996841312682	805.59133923258
1.1017319601905	765.71632176521
1.1037797891128	695.32907844988
1.1058276180351	599.43741561897
1.1078754469574	483.70463704727
1.1099232758796	354.25883358681
1.1119711048019	217.61365556214
1.1140189337242	82.107684473968
1.1160667626465	64.416939860284
1.1181145915688	184.34311821414
1.1201624204911	293.36876676324
1.1222102494134	384.35774145153
1.1242580783357	453.98691584103
1.1263059072579	500.20934143537
1.1283537361802	522.09613515348
1.1304015651025	519.79342553650
1.1324493940248	494.46595850683
1.1344972229471	448.21116924805
1.1365450518694	383.94643595667
1.1385928807917	305.28450258305
1.1406407097140	216.45219545975
1.1426885386362	122.61346090533
1.1447363675585	38.383039942928
1.1467841964808	80.864329336832
1.1488320254031	165.57381128855
1.1508798543254	242.47349901800
1.1529276832477	306.51175322871
1.1549755121700	354.93655987126
1.1570233410923	386.00163091137
1.1590711700145	398.84052340944
1.1611189989368	393.43913221686
1.1631668278591	370.60219760802
1.1652146567814	331.89824921224
1.1672624857037	279.58821464502
1.1693103146260	216.56716469832
1.1713581435483	146.45941499157
1.1734059724705	75.065612155953
1.1754538013928	37.382044524366
1.1775016303151	92.552805688045
1.1795494592374	158.09381409774
1.1815972881597	216.87201657150
1.1836451170820	265.04793954330
1.1856929460043	300.39061631199
1.1877407749266	321.51239128627
1.1897886038488	327.76533832839
1.1918364327711	319.21572895723
